Time (s),joint 1,joint 2,joint 3,joint 4,joint 5,joint 6
0.1,0,0,0,0,0,0
0.15,0,0,0,0,0,0
0.2,-1.42E-05,-5.68E-05,-1.28E-04,-2.27E-04,-3.55E-04,-5.11E-04
0.25,-5.68E-05,-2.27E-04,-5.11E-04,-9.07E-04,-1.41E-03,-2.03E-03
0.3,-1.28E-04,-5.11E-04,-1.15E-03,-2.03E-03,-3.16E-03,-4.53E-03
0.35,-2.27E-04,-9.07E-04,-2.03E-03,-3.59E-03,-5.57E-03,-7.94E-03
0.4,-3.55E-04,-1.41E-03,-3.16E-03,-5.57E-03,-8.59E-03,-1.22E-02
0.45,-5.11E-04,-2.03E-03,-4.53E-03,-7.94E-03,-1.22E-02,-1.72E-02
0.5,-6.95E-04,-2.76E-03,-6.12E-03,-1.07E-02,-1.63E-02,-2.28E-02
0.55,-9.07E-04,-3.59E-03,-7.94E-03,-1.38E-02,-2.09E-02,-2.90E-02
0.6,-1.15E-03,-4.53E-03,-9.97E-03,-1.72E-02,-2.58E-02,-3.55E-02
0.65,-1.41E-03,-5.57E-03,-1.22E-02,-2.09E-02,-3.11E-02,-4.22E-02
0.7,-1.71E-03,-6.71E-03,-1.46E-02,-2.48E-02,-3.66E-02,-4.90E-02
0.75,-2.03E-03,-7.94E-03,-1.72E-02,-2.90E-02,-4.22E-02,-5.56E-02
0.8,-2.38E-03,-9.27E-03,-1.99E-02,-3.33E-02,-4.78E-02,-6.21E-02
0.85,-2.76E-03,-1.07E-02,-2.28E-02,-3.77E-02,-5.34E-02,-6.82E-02
0.9,-3.16E-03,-1.22E-02,-2.58E-02,-4.22E-02,-5.89E-02,-7.37E-02
0.95,-3.59E-03,-1.38E-02,-2.90E-02,-4.67E-02,-6.42E-02,-7.86E-02
1,-4.05E-03,-1.55E-02,-3.22E-02,-5.12E-02,-6.91E-02,-8.27E-02
1.05,-4.53E-03,-1.72E-02,-3.55E-02,-5.56E-02,-7.37E-02,-8.60E-02
1.1,-5.03E-03,-1.90E-02,-3.88E-02,-6.00E-02,-7.78E-02,-8.83E-02
1.15,-5.57E-03,-2.09E-02,-4.22E-02,-6.42E-02,-8.14E-02,-8.97E-02
1.2,-6.12E-03,-2.28E-02,-4.56E-02,-6.82E-02,-8.44E-02,-9.00E-02
1.25,-6.71E-03,-2.48E-02,-4.90E-02,-7.19E-02,-8.68E-02,-8.93E-02
1.3,-7.31E-03,-2.69E-02,-5.23E-02,-7.54E-02,-8.86E-02,-8.76E-02
1.35,-7.94E-03,-2.90E-02,-5.56E-02,-7.86E-02,-8.97E-02,-8.50E-02
1.4,-8.59E-03,-3.11E-02,-5.89E-02,-8.14E-02,-9.00E-02,-8.14E-02
1.45,-9.27E-03,-3.33E-02,-6.21E-02,-8.39E-02,-8.97E-02,-7.70E-02
1.5,-9.97E-03,-3.55E-02,-6.52E-02,-8.60E-02,-8.86E-02,-7.19E-02
1.55,-1.07E-02,-3.77E-02,-6.82E-02,-8.76E-02,-8.68E-02,-6.62E-02
1.6,-1.14E-02,-3.99E-02,-7.10E-02,-8.89E-02,-8.44E-02,-6.00E-02
1.65,-1.22E-02,-4.22E-02,-7.37E-02,-8.97E-02,-8.14E-02,-5.34E-02
1.7,-1.30E-02,-4.44E-02,-7.62E-02,-9.00E-02,-7.78E-02,-4.67E-02
1.75,-1.38E-02,-4.67E-02,-7.86E-02,-8.99E-02,-7.37E-02,-3.99E-02
1.8,-1.46E-02,-4.90E-02,-8.07E-02,-8.93E-02,-6.91E-02,-3.33E-02
1.85,-1.55E-02,-5.12E-02,-8.27E-02,-8.83E-02,-6.42E-02,-2.69E-02
1.9,-1.63E-02,-5.34E-02,-8.44E-02,-8.68E-02,-5.89E-02,-2.09E-02
1.95,-1.72E-02,-5.56E-02,-8.60E-02,-8.50E-02,-5.34E-02,-1.55E-02
2,-1.81E-02,-5.78E-02,-8.72E-02,-8.27E-02,-4.78E-02,-1.07E-02
2.05,-1.90E-02,-6.00E-02,-8.83E-02,-8.00E-02,-4.22E-02,-6.71E-03
2.1,-1.99E-02,-6.21E-02,-8.91E-02,-7.70E-02,-3.66E-02,-3.59E-03
2.15,-2.09E-02,-6.42E-02,-8.97E-02,-7.37E-02,-3.11E-02,-1.41E-03
2.2,-2.19E-02,-6.62E-02,-8.99E-02,-7.01E-02,-2.58E-02,-2.27E-04
2.25,-2.28E-02,-6.82E-02,-9.00E-02,-6.62E-02,-2.09E-02,-5.68E-05
2.3,-2.38E-02,-7.01E-02,-8.98E-02,-6.21E-02,-1.63E-02,-9.07E-04
2.35,-2.48E-02,-7.19E-02,-8.93E-02,-5.78E-02,-1.22E-02,-2.76E-03
2.4,-2.58E-02,-7.37E-02,-8.86E-02,-5.34E-02,-8.59E-03,-5.57E-03
2.45,-2.69E-02,-7.54E-02,-8.76E-02,-4.90E-02,-5.57E-03,-9.27E-03
2.5,-2.79E-02,-7.70E-02,-8.64E-02,-4.44E-02,-3.16E-03,-1.38E-02
2.55,-2.90E-02,-7.86E-02,-8.50E-02,-3.99E-02,-1.41E-03,-1.90E-02
2.6,-3.00E-02,-8.00E-02,-8.33E-02,-3.55E-02,-3.55E-04,-2.48E-02
2.65,-3.11E-02,-8.14E-02,-8.14E-02,-3.11E-02,0,-3.11E-02
2.7,-3.22E-02,-8.27E-02,-7.93E-02,-2.69E-02,-3.55E-04,-3.77E-02
2.75,-3.33E-02,-8.39E-02,-7.70E-02,-2.28E-02,-1.41E-03,-4.44E-02
2.8,-3.44E-02,-8.50E-02,-7.46E-02,-1.90E-02,-3.16E-03,-5.12E-02
2.85,-3.55E-02,-8.60E-02,-7.19E-02,-1.55E-02,-5.57E-03,-5.78E-02
2.9,-3.66E-02,-8.68E-02,-6.91E-02,-1.22E-02,-8.59E-03,-6.42E-02
2.95,-3.77E-02,-8.76E-02,-6.62E-02,-9.27E-03,-1.22E-02,-7.01E-02
3,-3.88E-02,-8.83E-02,-6.31E-02,-6.71E-03,-1.63E-02,-7.54E-02
3.05,-3.99E-02,-8.89E-02,-6.00E-02,-4.53E-03,-2.09E-02,-8.00E-02
3.1,-4.11E-02,-8.93E-02,-5.67E-02,-2.76E-03,-2.58E-02,-8.39E-02
3.15,-4.22E-02,-8.97E-02,-5.34E-02,-1.41E-03,-3.11E-02,-8.68E-02
3.2,-4.33E-02,-8.99E-02,-5.01E-02,-5.11E-04,-3.66E-02,-8.89E-02
3.25,-4.44E-02,-9.00E-02,-4.67E-02,-5.68E-05,-4.22E-02,-8.99E-02
3.3,-4.56E-02,-9.00E-02,-4.33E-02,-5.68E-05,-4.78E-02,-8.99E-02
3.35,-4.67E-02,-8.99E-02,-3.99E-02,-5.11E-04,-5.34E-02,-8.89E-02
3.4,-4.78E-02,-8.97E-02,-3.66E-02,-1.41E-03,-5.89E-02,-8.68E-02
3.45,-4.90E-02,-8.93E-02,-3.33E-02,-2.76E-03,-6.42E-02,-8.39E-02
3.5,-5.01E-02,-8.89E-02,-3.00E-02,-4.53E-03,-6.91E-02,-8.00E-02
3.55,-5.12E-02,-8.83E-02,-2.69E-02,-6.71E-03,-7.37E-02,-7.54E-02
3.6,-5.23E-02,-8.76E-02,-2.38E-02,-9.27E-03,-7.78E-02,-7.01E-02
3.65,-5.34E-02,-8.68E-02,-2.09E-02,-1.22E-02,-8.14E-02,-6.42E-02
3.7,-5.45E-02,-8.60E-02,-1.81E-02,-1.55E-02,-8.44E-02,-5.78E-02
3.75,-5.56E-02,-8.50E-02,-1.55E-02,-1.90E-02,-8.68E-02,-5.12E-02
3.8,-5.67E-02,-8.39E-02,-1.30E-02,-2.28E-02,-8.86E-02,-4.44E-02
3.85,-5.78E-02,-8.27E-02,-1.07E-02,-2.69E-02,-8.97E-02,-3.77E-02
3.9,-5.89E-02,-8.14E-02,-8.59E-03,-3.11E-02,-9.00E-02,-3.11E-02
3.95,-6.00E-02,-8.00E-02,-6.71E-03,-3.55E-02,-8.97E-02,-2.48E-02
4,-6.10E-02,-7.86E-02,-5.03E-03,-3.99E-02,-8.86E-02,-1.90E-02
4.05,-6.21E-02,-7.70E-02,-3.59E-03,-4.44E-02,-8.68E-02,-1.38E-02
4.1,-6.31E-02,-7.54E-02,-2.38E-03,-4.90E-02,-8.44E-02,-9.27E-03
4.15,-6.42E-02,-7.37E-02,-1.41E-03,-5.34E-02,-8.14E-02,-5.57E-03
4.2,-6.52E-02,-7.19E-02,-6.95E-04,-5.78E-02,-7.78E-02,-2.76E-03
4.25,-6.62E-02,-7.01E-02,-2.27E-04,-6.21E-02,-7.37E-02,-9.07E-04
4.3,-6.72E-02,-6.82E-02,-1.42E-05,-6.62E-02,-6.91E-02,-5.68E-05
4.35,-6.82E-02,-6.62E-02,-5.68E-05,-7.01E-02,-6.42E-02,-2.27E-04
4.4,-6.91E-02,-6.42E-02,-3.55E-04,-7.37E-02,-5.89E-02,-1.41E-03
4.45,-7.01E-02,-6.21E-02,-9.07E-04,-7.70E-02,-5.34E-02,-3.59E-03
4.5,-7.10E-02,-6.00E-02,-1.71E-03,-8.00E-02,-4.78E-02,-6.71E-03
4.55,-7.19E-02,-5.78E-02,-2.76E-03,-8.27E-02,-4.22E-02,-1.07E-02
4.6,-7.28E-02,-5.56E-02,-4.05E-03,-8.50E-02,-3.66E-02,-1.55E-02
4.65,-7.37E-02,-5.34E-02,-5.57E-03,-8.68E-02,-3.11E-02,-2.09E-02
4.7,-7.46E-02,-5.12E-02,-7.31E-03,-8.83E-02,-2.58E-02,-2.69E-02
4.75,-7.54E-02,-4.90E-02,-9.27E-03,-8.93E-02,-2.09E-02,-3.33E-02
4.8,-7.62E-02,-4.67E-02,-1.14E-02,-8.99E-02,-1.63E-02,-3.99E-02
4.85,-7.70E-02,-4.44E-02,-1.38E-02,-9.00E-02,-1.22E-02,-4.67E-02
4.9,-7.78E-02,-4.22E-02,-1.63E-02,-8.97E-02,-8.59E-03,-5.34E-02
4.95,-7.86E-02,-3.99E-02,-1.90E-02,-8.89E-02,-5.57E-03,-6.00E-02
5,-7.93E-02,-3.77E-02,-2.19E-02,-8.76E-02,-3.16E-03,-6.62E-02
5.05,-8.00E-02,-3.55E-02,-2.48E-02,-8.60E-02,-1.41E-03,-7.19E-02
5.1,-8.07E-02,-3.33E-02,-2.79E-02,-8.39E-02,-3.55E-04,-7.70E-02
5.15,-8.14E-02,-3.11E-02,-3.11E-02,-8.14E-02,0,-8.14E-02
5.2,-8.21E-02,-2.90E-02,-3.44E-02,-7.86E-02,-3.55E-04,-8.50E-02
5.25,-8.27E-02,-2.69E-02,-3.77E-02,-7.54E-02,-1.41E-03,-8.76E-02
5.3,-8.33E-02,-2.48E-02,-4.11E-02,-7.19E-02,-3.16E-03,-8.93E-02
5.35,-8.39E-02,-2.28E-02,-4.44E-02,-6.82E-02,-5.57E-03,-9.00E-02
5.4,-8.44E-02,-2.09E-02,-4.78E-02,-6.42E-02,-8.59E-03,-8.97E-02
5.45,-8.50E-02,-1.90E-02,-5.12E-02,-6.00E-02,-1.22E-02,-8.83E-02
5.5,-8.55E-02,-1.72E-02,-5.45E-02,-5.56E-02,-1.63E-02,-8.60E-02
5.55,-8.60E-02,-1.55E-02,-5.78E-02,-5.12E-02,-2.09E-02,-8.27E-02
5.6,-8.64E-02,-1.38E-02,-6.10E-02,-4.67E-02,-2.58E-02,-7.86E-02
5.65,-8.68E-02,-1.22E-02,-6.42E-02,-4.22E-02,-3.11E-02,-7.37E-02
5.7,-8.72E-02,-1.07E-02,-6.72E-02,-3.77E-02,-3.66E-02,-6.82E-02
5.75,-8.76E-02,-9.27E-03,-7.01E-02,-3.33E-02,-4.22E-02,-6.21E-02
5.8,-8.80E-02,-7.94E-03,-7.28E-02,-2.90E-02,-4.78E-02,-5.56E-02
5.85,-8.83E-02,-6.71E-03,-7.54E-02,-2.48E-02,-5.34E-02,-4.90E-02
5.9,-8.86E-02,-5.57E-03,-7.78E-02,-2.09E-02,-5.89E-02,-4.22E-02
5.95,-8.89E-02,-4.53E-03,-8.00E-02,-1.72E-02,-6.42E-02,-3.55E-02
6,-8.91E-02,-3.59E-03,-8.21E-02,-1.38E-02,-6.91E-02,-2.90E-02
6.05,-8.93E-02,-2.76E-03,-8.39E-02,-1.07E-02,-7.37E-02,-2.28E-02
6.1,-8.95E-02,-2.03E-03,-8.55E-02,-7.94E-03,-7.78E-02,-1.72E-02
6.15,-8.97E-02,-1.41E-03,-8.68E-02,-5.57E-03,-8.14E-02,-1.22E-02
6.2,-8.98E-02,-9.07E-04,-8.80E-02,-3.59E-03,-8.44E-02,-7.94E-03
6.25,-8.99E-02,-5.11E-04,-8.89E-02,-2.03E-03,-8.68E-02,-4.53E-03
6.3,-8.99E-02,-2.27E-04,-8.95E-02,-9.07E-04,-8.86E-02,-2.03E-03
6.35,-9.00E-02,-5.68E-05,-8.99E-02,-2.27E-04,-8.97E-02,-5.11E-04
6.4,-9.00E-02,0,-9.00E-02,0,-9.00E-02,0
6.45,-9.00E-02,-5.68E-05,-8.99E-02,-2.27E-04,-8.97E-02,-5.11E-04
6.5,-8.99E-02,-2.27E-04,-8.95E-02,-9.07E-04,-8.86E-02,-2.03E-03
6.55,-8.99E-02,-5.11E-04,-8.89E-02,-2.03E-03,-8.68E-02,-4.53E-03
6.6,-8.98E-02,-9.07E-04,-8.80E-02,-3.59E-03,-8.44E-02,-7.94E-03
6.65,-8.97E-02,-1.41E-03,-8.68E-02,-5.57E-03,-8.14E-02,-1.22E-02
6.7,-8.95E-02,-2.03E-03,-8.55E-02,-7.94E-03,-7.78E-02,-1.72E-02
6.75,-8.93E-02,-2.76E-03,-8.39E-02,-1.07E-02,-7.37E-02,-2.28E-02
6.8,-8.91E-02,-3.59E-03,-8.21E-02,-1.38E-02,-6.91E-02,-2.90E-02
6.85,-8.89E-02,-4.53E-03,-8.00E-02,-1.72E-02,-6.42E-02,-3.55E-02
6.9,-8.86E-02,-5.57E-03,-7.78E-02,-2.09E-02,-5.89E-02,-4.22E-02
6.95,-8.83E-02,-6.71E-03,-7.54E-02,-2.48E-02,-5.34E-02,-4.90E-02
7,-8.80E-02,-7.94E-03,-7.28E-02,-2.90E-02,-4.78E-02,-5.56E-02
7.05,-8.76E-02,-9.27E-03,-7.01E-02,-3.33E-02,-4.22E-02,-6.21E-02
7.1,-8.72E-02,-1.07E-02,-6.72E-02,-3.77E-02,-3.66E-02,-6.82E-02
7.15,-8.68E-02,-1.22E-02,-6.42E-02,-4.22E-02,-3.11E-02,-7.37E-02
7.2,-8.64E-02,-1.38E-02,-6.10E-02,-4.67E-02,-2.58E-02,-7.86E-02
7.25,-8.60E-02,-1.55E-02,-5.78E-02,-5.12E-02,-2.09E-02,-8.27E-02
7.3,-8.55E-02,-1.72E-02,-5.45E-02,-5.56E-02,-1.63E-02,-8.60E-02
7.35,-8.50E-02,-1.90E-02,-5.12E-02,-6.00E-02,-1.22E-02,-8.83E-02
7.4,-8.44E-02,-2.09E-02,-4.78E-02,-6.42E-02,-8.59E-03,-8.97E-02
7.45,-8.39E-02,-2.28E-02,-4.44E-02,-6.82E-02,-5.57E-03,-9.00E-02
7.5,-8.33E-02,-2.48E-02,-4.11E-02,-7.19E-02,-3.16E-03,-8.93E-02
7.55,-8.27E-02,-2.69E-02,-3.77E-02,-7.54E-02,-1.41E-03,-8.76E-02
7.6,-8.21E-02,-2.90E-02,-3.44E-02,-7.86E-02,-3.55E-04,-8.50E-02
7.65,-8.14E-02,-3.11E-02,-3.11E-02,-8.14E-02,0,-8.14E-02
7.7,-8.07E-02,-3.33E-02,-2.79E-02,-8.39E-02,-3.55E-04,-7.70E-02
7.75,-8.00E-02,-3.55E-02,-2.48E-02,-8.60E-02,-1.41E-03,-7.19E-02
7.8,-7.93E-02,-3.77E-02,-2.19E-02,-8.76E-02,-3.16E-03,-6.62E-02
7.85,-7.86E-02,-3.99E-02,-1.90E-02,-8.89E-02,-5.57E-03,-6.00E-02
7.9,-7.78E-02,-4.22E-02,-1.63E-02,-8.97E-02,-8.59E-03,-5.34E-02
7.95,-7.70E-02,-4.44E-02,-1.38E-02,-9.00E-02,-1.22E-02,-4.67E-02
8,-7.62E-02,-4.67E-02,-1.14E-02,-8.99E-02,-1.63E-02,-3.99E-02
8.05,-7.54E-02,-4.90E-02,-9.27E-03,-8.93E-02,-2.09E-02,-3.33E-02
8.1,-7.46E-02,-5.12E-02,-7.31E-03,-8.83E-02,-2.58E-02,-2.69E-02
8.15,-7.37E-02,-5.34E-02,-5.57E-03,-8.68E-02,-3.11E-02,-2.09E-02
8.2,-7.28E-02,-5.56E-02,-4.05E-03,-8.50E-02,-3.66E-02,-1.55E-02
8.25,-7.19E-02,-5.78E-02,-2.76E-03,-8.27E-02,-4.22E-02,-1.07E-02
8.3,-7.10E-02,-6.00E-02,-1.71E-03,-8.00E-02,-4.78E-02,-6.71E-03
8.35,-7.01E-02,-6.21E-02,-9.07E-04,-7.70E-02,-5.34E-02,-3.59E-03
8.4,-6.91E-02,-6.42E-02,-3.55E-04,-7.37E-02,-5.89E-02,-1.41E-03
8.45,-6.82E-02,-6.62E-02,-5.68E-05,-7.01E-02,-6.42E-02,-2.27E-04
8.5,-6.72E-02,-6.82E-02,-1.42E-05,-6.62E-02,-6.91E-02,-5.68E-05
8.55,-6.62E-02,-7.01E-02,-2.27E-04,-6.21E-02,-7.37E-02,-9.07E-04
8.6,-6.52E-02,-7.19E-02,-6.95E-04,-5.78E-02,-7.78E-02,-2.76E-03
8.65,-6.42E-02,-7.37E-02,-1.41E-03,-5.34E-02,-8.14E-02,-5.57E-03
8.7,-6.31E-02,-7.54E-02,-2.38E-03,-4.90E-02,-8.44E-02,-9.27E-03
8.75,-6.21E-02,-7.70E-02,-3.59E-03,-4.44E-02,-8.68E-02,-1.38E-02
8.8,-6.10E-02,-7.86E-02,-5.03E-03,-3.99E-02,-8.86E-02,-1.90E-02
8.85,-6.00E-02,-8.00E-02,-6.71E-03,-3.55E-02,-8.97E-02,-2.48E-02
8.9,-5.89E-02,-8.14E-02,-8.59E-03,-3.11E-02,-9.00E-02,-3.11E-02
8.95,-5.78E-02,-8.27E-02,-1.07E-02,-2.69E-02,-8.97E-02,-3.77E-02
9,-5.67E-02,-8.39E-02,-1.30E-02,-2.28E-02,-8.86E-02,-4.44E-02
9.05,-5.56E-02,-8.50E-02,-1.55E-02,-1.90E-02,-8.68E-02,-5.12E-02
9.1,-5.45E-02,-8.60E-02,-1.81E-02,-1.55E-02,-8.44E-02,-5.78E-02
9.15,-5.34E-02,-8.68E-02,-2.09E-02,-1.22E-02,-8.14E-02,-6.42E-02
9.2,-5.23E-02,-8.76E-02,-2.38E-02,-9.27E-03,-7.78E-02,-7.01E-02
9.25,-5.12E-02,-8.83E-02,-2.69E-02,-6.71E-03,-7.37E-02,-7.54E-02
9.3,-5.01E-02,-8.89E-02,-3.00E-02,-4.53E-03,-6.91E-02,-8.00E-02
9.35,-4.90E-02,-8.93E-02,-3.33E-02,-2.76E-03,-6.42E-02,-8.39E-02
9.4,-4.78E-02,-8.97E-02,-3.66E-02,-1.41E-03,-5.89E-02,-8.68E-02
9.45,-4.67E-02,-8.99E-02,-3.99E-02,-5.11E-04,-5.34E-02,-8.89E-02
9.5,-4.56E-02,-9.00E-02,-4.33E-02,-5.68E-05,-4.78E-02,-8.99E-02
9.55,-4.44E-02,-9.00E-02,-4.67E-02,-5.68E-05,-4.22E-02,-8.99E-02
9.6,-4.33E-02,-8.99E-02,-5.01E-02,-5.11E-04,-3.66E-02,-8.89E-02
9.65,-4.22E-02,-8.97E-02,-5.34E-02,-1.41E-03,-3.11E-02,-8.68E-02
9.7,-4.11E-02,-8.93E-02,-5.67E-02,-2.76E-03,-2.58E-02,-8.39E-02
9.75,-3.99E-02,-8.89E-02,-6.00E-02,-4.53E-03,-2.09E-02,-8.00E-02
9.8,-3.88E-02,-8.83E-02,-6.31E-02,-6.71E-03,-1.63E-02,-7.54E-02
9.85,-3.77E-02,-8.76E-02,-6.62E-02,-9.27E-03,-1.22E-02,-7.01E-02
9.9,-3.66E-02,-8.68E-02,-6.91E-02,-1.22E-02,-8.59E-03,-6.42E-02
9.95,-3.55E-02,-8.60E-02,-7.19E-02,-1.55E-02,-5.57E-03,-5.78E-02
10,-3.44E-02,-8.50E-02,-7.46E-02,-1.90E-02,-3.16E-03,-5.12E-02
10.05,-3.33E-02,-8.39E-02,-7.70E-02,-2.28E-02,-1.41E-03,-4.44E-02
10.1,-3.22E-02,-8.27E-02,-7.93E-02,-2.69E-02,-3.55E-04,-3.77E-02
10.15,-3.11E-02,-8.14E-02,-8.14E-02,-3.11E-02,0,-3.11E-02
10.2,-3.00E-02,-8.00E-02,-8.33E-02,-3.55E-02,-3.55E-04,-2.48E-02
10.25,-2.90E-02,-7.86E-02,-8.50E-02,-3.99E-02,-1.41E-03,-1.90E-02
10.3,-2.79E-02,-7.70E-02,-8.64E-02,-4.44E-02,-3.16E-03,-1.38E-02
10.35,-2.69E-02,-7.54E-02,-8.76E-02,-4.90E-02,-5.57E-03,-9.27E-03
10.4,-2.58E-02,-7.37E-02,-8.86E-02,-5.34E-02,-8.59E-03,-5.57E-03
10.45,-2.48E-02,-7.19E-02,-8.93E-02,-5.78E-02,-1.22E-02,-2.76E-03
10.5,-2.38E-02,-7.01E-02,-8.98E-02,-6.21E-02,-1.63E-02,-9.07E-04
10.55,-2.28E-02,-6.82E-02,-9.00E-02,-6.62E-02,-2.09E-02,-5.68E-05
10.6,-2.19E-02,-6.62E-02,-8.99E-02,-7.01E-02,-2.58E-02,-2.27E-04
10.65,-2.09E-02,-6.42E-02,-8.97E-02,-7.37E-02,-3.11E-02,-1.41E-03
10.7,-1.99E-02,-6.21E-02,-8.91E-02,-7.70E-02,-3.66E-02,-3.59E-03
10.75,-1.90E-02,-6.00E-02,-8.83E-02,-8.00E-02,-4.22E-02,-6.71E-03
10.8,-1.81E-02,-5.78E-02,-8.72E-02,-8.27E-02,-4.78E-02,-1.07E-02
10.85,-1.72E-02,-5.56E-02,-8.60E-02,-8.50E-02,-5.34E-02,-1.55E-02
10.9,-1.63E-02,-5.34E-02,-8.44E-02,-8.68E-02,-5.89E-02,-2.09E-02
10.95,-1.55E-02,-5.12E-02,-8.27E-02,-8.83E-02,-6.42E-02,-2.69E-02
11,-1.46E-02,-4.90E-02,-8.07E-02,-8.93E-02,-6.91E-02,-3.33E-02
11.05,-1.38E-02,-4.67E-02,-7.86E-02,-8.99E-02,-7.37E-02,-3.99E-02
11.1,-1.30E-02,-4.44E-02,-7.62E-02,-9.00E-02,-7.78E-02,-4.67E-02
11.15,-1.22E-02,-4.22E-02,-7.37E-02,-8.97E-02,-8.14E-02,-5.34E-02
11.2,-1.14E-02,-3.99E-02,-7.10E-02,-8.89E-02,-8.44E-02,-6.00E-02
11.25,-1.07E-02,-3.77E-02,-6.82E-02,-8.76E-02,-8.68E-02,-6.62E-02
11.3,-9.97E-03,-3.55E-02,-6.52E-02,-8.60E-02,-8.86E-02,-7.19E-02
11.35,-9.27E-03,-3.33E-02,-6.21E-02,-8.39E-02,-8.97E-02,-7.70E-02
11.4,-8.59E-03,-3.11E-02,-5.89E-02,-8.14E-02,-9.00E-02,-8.14E-02
11.45,-7.94E-03,-2.90E-02,-5.56E-02,-7.86E-02,-8.97E-02,-8.50E-02
11.5,-7.31E-03,-2.69E-02,-5.23E-02,-7.54E-02,-8.86E-02,-8.76E-02
11.55,-6.71E-03,-2.48E-02,-4.90E-02,-7.19E-02,-8.68E-02,-8.93E-02
11.6,-6.12E-03,-2.28E-02,-4.56E-02,-6.82E-02,-8.44E-02,-9.00E-02
11.65,-5.57E-03,-2.09E-02,-4.22E-02,-6.42E-02,-8.14E-02,-8.97E-02
11.7,-5.03E-03,-1.90E-02,-3.88E-02,-6.00E-02,-7.78E-02,-8.83E-02
11.75,-4.53E-03,-1.72E-02,-3.55E-02,-5.56E-02,-7.37E-02,-8.60E-02
11.8,-4.05E-03,-1.55E-02,-3.22E-02,-5.12E-02,-6.91E-02,-8.27E-02
11.85,-3.59E-03,-1.38E-02,-2.90E-02,-4.67E-02,-6.42E-02,-7.86E-02
11.9,-3.16E-03,-1.22E-02,-2.58E-02,-4.22E-02,-5.89E-02,-7.37E-02
11.95,-2.76E-03,-1.07E-02,-2.28E-02,-3.77E-02,-5.34E-02,-6.82E-02
12,-2.38E-03,-9.27E-03,-1.99E-02,-3.33E-02,-4.78E-02,-6.21E-02
12.05,-2.03E-03,-7.94E-03,-1.72E-02,-2.90E-02,-4.22E-02,-5.56E-02
12.1,-1.71E-03,-6.71E-03,-1.46E-02,-2.48E-02,-3.66E-02,-4.90E-02
12.15,-1.41E-03,-5.57E-03,-1.22E-02,-2.09E-02,-3.11E-02,-4.22E-02
12.2,-1.15E-03,-4.53E-03,-9.97E-03,-1.72E-02,-2.58E-02,-3.55E-02
12.25,-9.07E-04,-3.59E-03,-7.94E-03,-1.38E-02,-2.09E-02,-2.90E-02
12.3,-6.95E-04,-2.76E-03,-6.12E-03,-1.07E-02,-1.63E-02,-2.28E-02
12.35,-5.11E-04,-2.03E-03,-4.53E-03,-7.94E-03,-1.22E-02,-1.72E-02
12.4,-3.55E-04,-1.41E-03,-3.16E-03,-5.57E-03,-8.59E-03,-1.22E-02
12.45,-2.27E-04,-9.07E-04,-2.03E-03,-3.59E-03,-5.57E-03,-7.94E-03
12.5,-1.28E-04,-5.11E-04,-1.15E-03,-2.03E-03,-3.16E-03,-4.53E-03
12.55,-5.68E-05,-2.27E-04,-5.11E-04,-9.07E-04,-1.41E-03,-2.03E-03
12.6,-1.42E-05,-5.68E-05,-1.28E-04,-2.27E-04,-3.55E-04,-5.11E-04
12.65,-3.28E-06,1.33E-06,-4.87E-07,-2.38E-06,1.63E-06,-2.30E-07
12.7,4.62E-03,-2.66E-03,-2.33E-03,-4.57E-03,3.40E-03,8.01E-04
12.75,9.07E-03,-5.63E-03,-4.89E-03,-9.31E-03,6.61E-03,1.25E-03
12.8,1.33E-02,-8.89E-03,-7.66E-03,-1.42E-02,9.61E-03,1.34E-03
12.85,1.74E-02,-1.24E-02,-1.06E-02,-1.92E-02,1.24E-02,1.09E-03
12.9,2.12E-02,-1.60E-02,-1.37E-02,-2.42E-02,1.50E-02,6.27E-04
12.95,2.48E-02,-1.99E-02,-1.70E-02,-2.93E-02,1.74E-02,-2.51E-04
13,2.81E-02,-2.40E-02,-2.03E-02,-3.45E-02,1.94E-02,-1.41E-03
13.05,3.11E-02,-2.82E-02,-2.37E-02,-3.96E-02,2.13E-02,-2.82E-03
13.1,3.39E-02,-3.25E-02,-2.72E-02,-4.46E-02,2.29E-02,-4.43E-03
13.15,3.64E-02,-3.68E-02,-3.06E-02,-4.95E-02,2.43E-02,-6.22E-03
13.2,3.87E-02,-4.10E-02,-3.40E-02,-5.43E-02,2.55E-02,-8.15E-03
13.25,4.07E-02,-4.52E-02,-3.74E-02,-5.89E-02,2.65E-02,-1.02E-02
13.3,4.25E-02,-4.92E-02,-4.06E-02,-6.33E-02,2.74E-02,-1.22E-02
13.35,4.41E-02,-5.31E-02,-4.37E-02,-6.75E-02,2.80E-02,-1.43E-02
13.4,4.55E-02,-5.68E-02,-4.66E-02,-7.14E-02,2.86E-02,-1.64E-02
13.45,4.66E-02,-6.02E-02,-4.94E-02,-7.50E-02,2.90E-02,-1.83E-02
13.5,4.76E-02,-6.34E-02,-5.19E-02,-7.83E-02,2.93E-02,-2.02E-02
13.55,4.85E-02,-6.63E-02,-5.42E-02,-8.12E-02,2.95E-02,-2.20E-02
13.6,4.92E-02,-6.88E-02,-5.62E-02,-8.38E-02,2.97E-02,-2.35E-02
13.65,4.97E-02,-7.10E-02,-5.80E-02,-8.61E-02,2.98E-02,-2.49E-02
13.7,5.01E-02,-7.29E-02,-5.94E-02,-8.79E-02,2.98E-02,-2.61E-02
13.75,5.05E-02,-7.43E-02,-6.05E-02,-8.94E-02,2.98E-02,-2.70E-02
13.8,5.07E-02,-7.54E-02,-6.14E-02,-9.04E-02,2.99E-02,-2.76E-02
13.85,5.08E-02,-7.60E-02,-6.18E-02,-9.10E-02,2.99E-02,-2.80E-02
13.9,5.09E-02,-7.62E-02,-6.20E-02,-9.12E-02,2.99E-02,-2.82E-02
13.95,5.08E-02,-7.60E-02,-6.18E-02,-9.10E-02,2.99E-02,-2.80E-02
14,5.07E-02,-7.54E-02,-6.13E-02,-9.04E-02,2.98E-02,-2.76E-02
14.05,5.05E-02,-7.44E-02,-6.05E-02,-8.94E-02,2.98E-02,-2.70E-02
14.1,5.01E-02,-7.29E-02,-5.94E-02,-8.80E-02,2.98E-02,-2.60E-02
14.15,4.97E-02,-7.11E-02,-5.79E-02,-8.61E-02,2.97E-02,-2.49E-02
14.2,4.91E-02,-6.89E-02,-5.61E-02,-8.39E-02,2.96E-02,-2.35E-02
14.25,4.85E-02,-6.64E-02,-5.41E-02,-8.13E-02,2.94E-02,-2.19E-02
14.3,4.76E-02,-6.35E-02,-5.18E-02,-7.84E-02,2.92E-02,-2.02E-02
14.35,4.66E-02,-6.04E-02,-4.93E-02,-7.51E-02,2.89E-02,-1.83E-02
14.4,4.55E-02,-5.69E-02,-4.65E-02,-7.15E-02,2.85E-02,-1.63E-02
14.45,4.41E-02,-5.32E-02,-4.36E-02,-6.76E-02,2.80E-02,-1.43E-02
14.5,4.25E-02,-4.94E-02,-4.05E-02,-6.34E-02,2.73E-02,-1.22E-02
14.55,4.07E-02,-4.53E-02,-3.72E-02,-5.90E-02,2.65E-02,-1.01E-02
14.6,3.87E-02,-4.12E-02,-3.39E-02,-5.44E-02,2.55E-02,-8.09E-03
14.65,3.64E-02,-3.69E-02,-3.05E-02,-4.96E-02,2.43E-02,-6.16E-03
14.7,3.39E-02,-3.26E-02,-2.70E-02,-4.47E-02,2.29E-02,-4.36E-03
14.75,3.11E-02,-2.84E-02,-2.36E-02,-3.96E-02,2.13E-02,-2.73E-03
14.8,2.81E-02,-2.42E-02,-2.01E-02,-3.45E-02,1.94E-02,-1.32E-03
14.85,2.48E-02,-2.01E-02,-1.68E-02,-2.94E-02,1.73E-02,-1.57E-04
14.9,2.13E-02,-1.61E-02,-1.35E-02,-2.43E-02,1.50E-02,7.30E-04
14.95,1.75E-02,-1.24E-02,-1.04E-02,-1.92E-02,1.25E-02,1.31E-03
15,1.34E-02,-8.81E-03,-7.44E-03,-1.42E-02,9.71E-03,1.57E-03
15.05,9.17E-03,-5.53E-03,-4.66E-03,-9.25E-03,6.72E-03,1.48E-03
15.1,4.72E-03,-2.55E-03,-2.10E-03,-4.50E-03,3.51E-03,1.04E-03
15.15,9.68E-05,1.13E-04,2.38E-04,7.81E-05,1.11E-04,2.39E-04
15.2,-4.68E-03,2.44E-03,2.33E-03,4.45E-03,-3.47E-03,-9.11E-04
15.25,-9.57E-03,4.41E-03,4.15E-03,8.59E-03,-7.20E-03,-2.41E-03
15.3,-1.46E-02,6.02E-03,5.72E-03,1.25E-02,-1.11E-02,-4.22E-03
15.35,-1.96E-02,7.27E-03,7.02E-03,1.61E-02,-1.50E-02,-6.35E-03
15.4,-2.47E-02,8.17E-03,8.05E-03,1.94E-02,-1.91E-02,-8.75E-03
15.45,-2.98E-02,8.72E-03,8.82E-03,2.25E-02,-2.32E-02,-1.14E-02
15.5,-3.48E-02,8.95E-03,9.35E-03,2.52E-02,-2.73E-02,-1.43E-02
15.55,-3.98E-02,8.88E-03,9.65E-03,2.77E-02,-3.14E-02,-1.73E-02
15.6,-4.47E-02,8.53E-03,9.73E-03,2.98E-02,-3.54E-02,-2.04E-02
15.65,-4.94E-02,7.95E-03,9.63E-03,3.17E-02,-3.94E-02,-2.37E-02
